Er [keV]		dN_dEr [1 / (keV t yr)]
1.000000e-02	1.761434e-01
1.024214e-02	1.761412e-01
1.049014e-02	1.761389e-01
1.074415e-02	1.761366e-01
1.100431e-02	1.761342e-01
1.127077e-02	1.761318e-01
1.154368e-02	1.761293e-01
1.182319e-02	1.761267e-01
1.210948e-02	1.761241e-01
1.240270e-02	1.761215e-01
1.270302e-02	1.761187e-01
1.301061e-02	1.761159e-01
1.332565e-02	1.761130e-01
1.364831e-02	1.761101e-01
1.397879e-02	1.761071e-01
1.431728e-02	1.761040e-01
1.466395e-02	1.761008e-01
1.501903e-02	1.760976e-01
1.538270e-02	1.760942e-01
1.575517e-02	1.760908e-01
1.613667e-02	1.760873e-01
1.652740e-02	1.760838e-01
1.692759e-02	1.760801e-01
1.733748e-02	1.760764e-01
1.775729e-02	1.760725e-01
1.818726e-02	1.760686e-01
1.862765e-02	1.760646e-01
1.907870e-02	1.760605e-01
1.954067e-02	1.760562e-01
2.001382e-02	1.760519e-01
2.049844e-02	1.760475e-01
2.099479e-02	1.760430e-01
2.150315e-02	1.760383e-01
2.202383e-02	1.760336e-01
2.255711e-02	1.760287e-01
2.310331e-02	1.760237e-01
2.366273e-02	1.760186e-01
2.423570e-02	1.760134e-01
2.482254e-02	1.760080e-01
2.542360e-02	1.760025e-01
2.603920e-02	1.759969e-01
2.666972e-02	1.759911e-01
2.731549e-02	1.759853e-01
2.797691e-02	1.759792e-01
2.865434e-02	1.759730e-01
2.934818e-02	1.759667e-01
3.005881e-02	1.759602e-01
3.078666e-02	1.759536e-01
3.153212e-02	1.759468e-01
3.229564e-02	1.759398e-01
3.307765e-02	1.759327e-01
3.387859e-02	1.759253e-01
3.469892e-02	1.759179e-01
3.553912e-02	1.759102e-01
3.639966e-02	1.759023e-01
3.728104e-02	1.758943e-01
3.818377e-02	1.758861e-01
3.910835e-02	1.758776e-01
4.005531e-02	1.758690e-01
4.102521e-02	1.758601e-01
4.201860e-02	1.758511e-01
4.303603e-02	1.758418e-01
4.407810e-02	1.758323e-01
4.514541e-02	1.758225e-01
4.623856e-02	1.758126e-01
4.735818e-02	1.758024e-01
4.850491e-02	1.757919e-01
4.967940e-02	1.757812e-01
5.088234e-02	1.757702e-01
5.211440e-02	1.757590e-01
5.337630e-02	1.757475e-01
5.466875e-02	1.757357e-01
5.599250e-02	1.757236e-01
5.734830e-02	1.757113e-01
5.873693e-02	1.756986e-01
6.015918e-02	1.756856e-01
6.161587e-02	1.756723e-01
6.310784e-02	1.756587e-01
6.463593e-02	1.756448e-01
6.620102e-02	1.756306e-01
6.780401e-02	1.756159e-01
6.944581e-02	1.756010e-01
7.112737e-02	1.755857e-01
7.284965e-02	1.755700e-01
7.461362e-02	1.755539e-01
7.642032e-02	1.755374e-01
7.827075e-02	1.755206e-01
8.016600e-02	1.755033e-01
8.210714e-02	1.754857e-01
8.409528e-02	1.754676e-01
8.613156e-02	1.754490e-01
8.821714e-02	1.754300e-01
9.035323e-02	1.754106e-01
9.254104e-02	1.753907e-01
9.478182e-02	1.753703e-01
9.707687e-02	1.753494e-01
9.942748e-02	1.753280e-01
1.018350e-01	1.753061e-01
1.043008e-01	1.752837e-01
1.068264e-01	1.752607e-01
1.094131e-01	1.752372e-01
1.120624e-01	1.752131e-01
1.147759e-01	1.751884e-01
1.175550e-01	1.751631e-01
1.204015e-01	1.751372e-01
1.233169e-01	1.751107e-01
1.263029e-01	1.750836e-01
1.293612e-01	1.750558e-01
1.324936e-01	1.750273e-01
1.357017e-01	1.749982e-01
1.389876e-01	1.749684e-01
1.423531e-01	1.749378e-01
1.458000e-01	1.749065e-01
1.493304e-01	1.748744e-01
1.529463e-01	1.748416e-01
1.566497e-01	1.748080e-01
1.604428e-01	1.747736e-01
1.643278e-01	1.747383e-01
1.683068e-01	1.747023e-01
1.723822e-01	1.746653e-01
1.765562e-01	1.746274e-01
1.808314e-01	1.745887e-01
1.852100e-01	1.745490e-01
1.896947e-01	1.745084e-01
1.942879e-01	1.744667e-01
1.989924e-01	1.744241e-01
2.038108e-01	1.743805e-01
2.087459e-01	1.743358e-01
2.138004e-01	1.742901e-01
2.189774e-01	1.742432e-01
2.242797e-01	1.741952e-01
2.297104e-01	1.741461e-01
2.352726e-01	1.740958e-01
2.409695e-01	1.740443e-01
2.468043e-01	1.739916e-01
2.527804e-01	1.739376e-01
2.589012e-01	1.738823e-01
2.651703e-01	1.738257e-01
2.715911e-01	1.737677e-01
2.781674e-01	1.737084e-01
2.849029e-01	1.736476e-01
2.918015e-01	1.735854e-01
2.988672e-01	1.735217e-01
3.061040e-01	1.734564e-01
3.135160e-01	1.733897e-01
3.211074e-01	1.733213e-01
3.288827e-01	1.732513e-01
3.368463e-01	1.731796e-01
3.450027e-01	1.731062e-01
3.533565e-01	1.730311e-01
3.619127e-01	1.729542e-01
3.706760e-01	1.728754e-01
3.796516e-01	1.727948e-01
3.888444e-01	1.727122e-01
3.982599e-01	1.726277e-01
4.079034e-01	1.725412e-01
4.177803e-01	1.724527e-01
4.278964e-01	1.723620e-01
4.382575e-01	1.722692e-01
4.488694e-01	1.721741e-01
4.597384e-01	1.720769e-01
4.708704e-01	1.719773e-01
4.822721e-01	1.718754e-01
4.939498e-01	1.717710e-01
5.059103e-01	1.716642e-01
5.181604e-01	1.715549e-01
5.307071e-01	1.714429e-01
5.435576e-01	1.713284e-01
5.567193e-01	1.712111e-01
5.701997e-01	1.710911e-01
5.840065e-01	1.709682e-01
5.981476e-01	1.708425e-01
6.126311e-01	1.707138e-01
6.274653e-01	1.705820e-01
6.426588e-01	1.704472e-01
6.582201e-01	1.703092e-01
6.741582e-01	1.701680e-01
6.904822e-01	1.700234e-01
7.072015e-01	1.698755e-01
7.243257e-01	1.697241e-01
7.418645e-01	1.695691e-01
7.598280e-01	1.694106e-01
7.782264e-01	1.692483e-01
7.970704e-01	1.690823e-01
8.163706e-01	1.689124e-01
8.361382e-01	1.687385e-01
8.563844e-01	1.685606e-01
8.771208e-01	1.683786e-01
8.983594e-01	1.681923e-01
9.201122e-01	1.680017e-01
9.423918e-01	1.678067e-01
9.652108e-01	1.676072e-01
9.885824e-01	1.674031e-01
1.012520e+00	1.671943e-01
1.037037e+00	1.669806e-01
1.062148e+00	1.667621e-01
1.087867e+00	1.665385e-01
1.114208e+00	1.663098e-01
1.141188e+00	1.660758e-01
1.168820e+00	1.658365e-01
1.197122e+00	1.655917e-01
1.226109e+00	1.653413e-01
1.255798e+00	1.650852e-01
1.286206e+00	1.648232e-01
1.317350e+00	1.645553e-01
1.349248e+00	1.642814e-01
1.381919e+00	1.640012e-01
1.415381e+00	1.637147e-01
1.449653e+00	1.634217e-01
1.484755e+00	1.631221e-01
1.520706e+00	1.628157e-01
1.557529e+00	1.625025e-01
1.595243e+00	1.621822e-01
1.633870e+00	1.618548e-01
1.673432e+00	1.615201e-01
1.713953e+00	1.611779e-01
1.755454e+00	1.608281e-01
1.797961e+00	1.604705e-01
1.841496e+00	1.601050e-01
1.886086e+00	1.597315e-01
1.931756e+00	1.593497e-01
1.978531e+00	1.589595e-01
2.026440e+00	1.585608e-01
2.075508e+00	1.581533e-01
2.125764e+00	1.577369e-01
2.177237e+00	1.573115e-01
2.229957e+00	1.568768e-01
2.283953e+00	1.564327e-01
2.339256e+00	1.559791e-01
2.395899e+00	1.555157e-01
2.453913e+00	1.550423e-01
2.513332e+00	1.545588e-01
2.574190e+00	1.540650e-01
2.636521e+00	1.535608e-01
2.700362e+00	1.530458e-01
2.765748e+00	1.525200e-01
2.832718e+00	1.519831e-01
2.901309e+00	1.514350e-01
2.971562e+00	1.508755e-01
3.043515e+00	1.503043e-01
3.117210e+00	1.497213e-01
3.192690e+00	1.491263e-01
3.269998e+00	1.485191e-01
3.349178e+00	1.478994e-01
3.430275e+00	1.472672e-01
3.513335e+00	1.466222e-01
3.598407e+00	1.459642e-01
3.685539e+00	1.452930e-01
3.774780e+00	1.446084e-01
3.866182e+00	1.439102e-01
3.959798e+00	1.431982e-01
4.055680e+00	1.424723e-01
4.153884e+00	1.417322e-01
4.254466e+00	1.409778e-01
4.357484e+00	1.402088e-01
4.462996e+00	1.394251e-01
4.571063e+00	1.386265e-01
4.681746e+00	1.378128e-01
4.795110e+00	1.369839e-01
4.911219e+00	1.361394e-01
5.030139e+00	1.352794e-01
5.151938e+00	1.344036e-01
5.276687e+00	1.335118e-01
5.404457e+00	1.326039e-01
5.535320e+00	1.316798e-01
5.669352e+00	1.307393e-01
5.806629e+00	1.297822e-01
5.947231e+00	1.288084e-01
6.091237e+00	1.278179e-01
6.238730e+00	1.268104e-01
6.389794e+00	1.257859e-01
6.544516e+00	1.247442e-01
6.702985e+00	1.236853e-01
6.865291e+00	1.226091e-01
7.031527e+00	1.215155e-01
7.201788e+00	1.204044e-01
7.376172e+00	1.192759e-01
7.554778e+00	1.181298e-01
7.737709e+00	1.169662e-01
7.925070e+00	1.157850e-01
8.116967e+00	1.145862e-01
8.313511e+00	1.133699e-01
8.514814e+00	1.121361e-01
8.720992e+00	1.108848e-01
8.932161e+00	1.096161e-01
9.148444e+00	1.083301e-01
9.369964e+00	1.070269e-01
9.596848e+00	1.057067e-01
9.829226e+00	1.043695e-01
1.006723e+01	1.030156e-01
1.031100e+01	1.016451e-01
1.056067e+01	1.002582e-01
1.081638e+01	9.885528e-02
1.107829e+01	9.743645e-02
1.134654e+01	9.600204e-02
1.162129e+01	9.455238e-02
1.190268e+01	9.308779e-02
1.219089e+01	9.160865e-02
1.248608e+01	9.011534e-02
1.278842e+01	8.860829e-02
1.309808e+01	8.708796e-02
1.341524e+01	8.555482e-02
1.374007e+01	8.400939e-02
1.407277e+01	8.245222e-02
1.441353e+01	8.088388e-02
1.476254e+01	7.930498e-02
1.512000e+01	7.771617e-02
1.548611e+01	7.611811e-02
1.586110e+01	7.451153e-02
1.624516e+01	7.289716e-02
1.663851e+01	7.127579e-02
1.704140e+01	6.964821e-02
1.745404e+01	6.801528e-02
1.787667e+01	6.637788e-02
1.830954e+01	6.473692e-02
1.875288e+01	6.309334e-02
1.920696e+01	6.144813e-02
1.967204e+01	5.980229e-02
2.014838e+01	5.815686e-02
2.063625e+01	5.651293e-02
2.113594e+01	5.487159e-02
2.164772e+01	5.323397e-02
2.217190e+01	5.160124e-02
2.270877e+01	4.997457e-02
2.325864e+01	4.835517e-02
2.382182e+01	4.674428e-02
2.439864e+01	4.514314e-02
2.498943e+01	4.355303e-02
2.559452e+01	4.197522e-02
2.621427e+01	4.041101e-02
2.684902e+01	3.886172e-02
2.749914e+01	3.732866e-02
2.816500e+01	3.581313e-02
2.884699e+01	3.431648e-02
2.954549e+01	3.284000e-02
3.026090e+01	3.138502e-02
3.099364e+01	2.995283e-02
3.174412e+01	2.854472e-02
3.251277e+01	2.716195e-02
3.330003e+01	2.580578e-02
3.410636e+01	2.447741e-02
3.493221e+01	2.317803e-02
3.577805e+01	2.190879e-02
3.664438e+01	2.067080e-02
3.753169e+01	1.946512e-02
3.844048e+01	1.829274e-02
3.937127e+01	1.715464e-02
4.032461e+01	1.605168e-02
4.130103e+01	1.498471e-02
4.230109e+01	1.395447e-02
4.332537e+01	1.296164e-02
4.437444e+01	1.200681e-02
4.544893e+01	1.109049e-02
4.654942e+01	1.021312e-02
4.767657e+01	9.375012e-03
4.883101e+01	8.576405e-03
5.001340e+01	7.817431e-03
5.122442e+01	7.098122e-03
5.246477e+01	6.418403e-03
5.373515e+01	5.778094e-03
5.503629e+01	5.176904e-03
5.636894e+01	4.614437e-03
5.773385e+01	4.090186e-03
5.913182e+01	3.603533e-03
6.056363e+01	3.153756e-03
6.203012e+01	2.740026e-03
6.353212e+01	2.361411e-03
6.507048e+01	2.016880e-03
6.664609e+01	1.705303e-03
6.825986e+01	1.425464e-03
6.991270e+01	1.176060e-03
7.160556e+01	9.557080e-04
7.333942e+01	7.629550e-04
7.511526e+01	5.962840e-04
7.693410e+01	4.541229e-04
7.879697e+01	3.348536e-04
8.070496e+01	2.368216e-04
8.265915e+01	1.583466e-04
8.466065e+01	9.773283e-05
8.671062e+01	5.328006e-05
8.881023e+01	2.329480e-05
9.096068e+01	6.101571e-06
9.316320e+01	5.419245e-08
9.541905e+01	3.546932e-06
9.772952e+01	1.502539e-05
1.000959e+02	3.299702e-05
1.025197e+02	5.604107e-05
1.050021e+02	8.281788e-05
1.075446e+02	1.120774e-04
1.101487e+02	1.426669e-04
1.128158e+02	1.735371e-04
1.155475e+02	2.037480e-04
1.183454e+02	2.324728e-04
1.212110e+02	2.590006e-04
1.241460e+02	2.827378e-04
1.271521e+02	3.032080e-04
1.302309e+02	3.200506e-04
1.333843e+02	3.330174e-04
1.366141e+02	3.419685e-04
1.399220e+02	3.468663e-04
1.433101e+02	3.477683e-04
1.467802e+02	3.448187e-04
1.503344e+02	3.382392e-04
1.539745e+02	3.283185e-04
1.577029e+02	3.154014e-04
1.615215e+02	2.998773e-04
1.654326e+02	2.821684e-04
1.694383e+02	2.627179e-04
1.735411e+02	2.419782e-04
1.777432e+02	2.204000e-04
1.820471e+02	1.984212e-04
1.864552e+02	1.764578e-04
1.909700e+02	1.548947e-04
1.955941e+02	1.340785e-04
2.003303e+02	1.143115e-04
2.051810e+02	9.584708e-05
2.101493e+02	7.888673e-05
2.152378e+02	6.357852e-05
2.204496e+02	5.001731e-05
2.257876e+02	3.824634e-05
2.312548e+02	2.826029e-05
2.368544e+02	2.000942e-05
2.425895e+02	1.340498e-05
2.484636e+02	8.325261e-06
2.544799e+02	4.622330e-06
2.606419e+02	2.129076e-06
2.669530e+02	6.664464e-07
2.734170e+02	5.042224e-08
2.800375e+02	9.858950e-08
2.868183e+02	6.360896e-07
2.937633e+02	1.500763e-06
3.008765e+02	2.547347e-06
3.081619e+02	3.650618e-06
3.156238e+02	4.707447e-06
3.232663e+02	5.637744e-06
3.310938e+02	6.384358e-06
3.391109e+02	6.912013e-06
3.473221e+02	7.205417e-06
3.557322e+02	7.266700e-06
3.643459e+02	7.112370e-06
3.731681e+02	6.769976e-06
3.822040e+02	6.274685e-06
3.914587e+02	5.665937e-06
4.009374e+02	4.984369e-06
4.106457e+02	4.269116e-06
4.205891e+02	3.555626e-06
4.307732e+02	2.874015e-06
4.412039e+02	2.248022e-06
4.518872e+02	1.694521e-06
4.628292e+02	1.223566e-06
4.740361e+02	8.388763e-07
4.855144e+02	5.386711e-07
4.972707e+02	3.167490e-07
5.093116e+02	1.636920e-07
5.216440e+02	6.809244e-08
5.342751e+02	1.770859e-08
5.472120e+02	4.721021e-10
5.604622e+02	5.294985e-09
5.740332e+02	2.264679e-08
5.879328e+02	4.489588e-08
6.021690e+02	6.642951e-08
6.167499e+02	8.358397e-08
6.316838e+02	9.442740e-08
6.469794e+02	9.844383e-08
6.626453e+02	9.616725e-08
6.786906e+02	8.881018e-08
6.951244e+02	7.792342e-08
7.119561e+02	6.511290e-08
7.291954e+02	5.182890e-08
7.468521e+02	3.923167e-08
7.649363e+02	2.812894e-08
7.834585e+02	1.897335e-08
8.024291e+02	1.190439e-08
8.218591e+02	6.817600e-09
8.417596e+02	3.445020e-09
8.621419e+02	1.433414e-09
8.830178e+02	4.107579e-10
9.043991e+02	3.546710e-11
9.262982e+02	2.673710e-11
9.487276e+02	1.774204e-10
9.717000e+02	3.529388e-10
9.952287e+02	4.807338e-10
1.019327e+03	5.348135e-10
1.044009e+03	5.193022e-10
1.069289e+03	4.538255e-10
1.095180e+03	3.623557e-10
1.121699e+03	2.660417e-10
1.148860e+03	1.796998e-10
1.176678e+03	1.111307e-10
1.205170e+03	6.222872e-11
1.234352e+03	3.091060e-11
1.264241e+03	1.311339e-11
1.294853e+03	4.395449e-12
1.326207e+03	9.499331e-13
1.358319e+03	4.780402e-14
1.391210e+03	5.104191e-14
1.424896e+03	1.789860e-13
1.459399e+03	1.930630e-13
1.494737e+03	1.144849e-13
1.530930e+03	3.097498e-14
1.568000e+03	0.000000e+00
